Src1771, ts=16321.6750, z=0.0377, lum=44.3707, ind=1.8728 E(TeV) E_high(TeV) E_low(TeV) Flux(TeV{-1}.m{-2}.s{-1}) Flux error(TeV{-1}.m{-2}.s{-1})
1.188502e-01 1.885022e-02 2.240353e-02 6.846408e-06 4.945909e-07
1.678804e-01 2.662665e-02 3.164583e-02 3.506057e-06 1.893574e-07
2.371374e-01 3.761114e-02 4.470092e-02 1.800808e-06 8.789480e-08
3.349654e-01 5.312715e-02 6.314173e-02 9.271711e-07 4.597972e-08
4.731513e-01 7.504409e-02 8.919007e-02 4.325915e-07 2.309012e-08
6.683439e-01 1.060026e-01 1.259843e-01 2.150161e-07 1.161665e-08
9.440609e-01 1.497326e-01 1.779576e-01 9.034119e-08 5.235586e-09
1.333521e+00 2.115030e-01 2.513718e-01 4.806592e-08 2.639826e-09
1.883649e+00 2.987559e-01 3.550720e-01 2.301011e-08 1.342852e-09
2.660725e+00 4.220039e-01 5.015526e-01 1.008181e-08 6.957084e-10
3.758374e+00 5.960964e-01 7.084619e-01 5.147470e-09 3.959145e-10
5.308844e+00 8.420085e-01 1.000729e+00 2.070407e-09 2.020921e-10
7.498942e+00 1.189369e+00 1.413567e+00 8.774361e-10 1.070451e-10
1.059254e+01 1.680028e+00 1.996717e+00 3.789518e-10 5.670154e-11
1.496236e+01 2.373102e+00 2.820438e+00 1.226412e-10 2.646859e-11
2.113489e+01 3.352096e+00 3.983974e+00 2.664059e-11 1.037367e-11
