Src1022, ts=12095.53, z=0.0584, lum=44.0679, ind=1.5870 E(TeV) E_high(TeV) E_low(TeV) Flux(TeV{-1}.m{-2}.s{-1}) Flux error(TeV{-1}.m{-2}.s{-1})
1.188502e-01 1.885022e-02 2.240353e-02 3.417165e-06 3.474539e-07
1.678804e-01 2.662665e-02 3.164583e-02 1.755355e-06 1.367093e-07
2.371374e-01 3.761114e-02 4.470092e-02 1.020710e-06 6.445669e-08
3.349654e-01 5.312715e-02 6.314173e-02 4.914208e-07 3.071292e-08
4.731513e-01 7.504409e-02 8.919007e-02 2.781775e-07 1.594346e-08
6.683439e-01 1.060026e-01 1.259843e-01 1.267358e-07 7.672016e-09
9.440609e-01 1.497326e-01 1.779576e-01 7.114255e-08 3.998337e-09
1.333521e+00 2.115030e-01 2.513718e-01 3.348618e-08 1.910852e-09
1.883649e+00 2.987559e-01 3.550720e-01 1.798662e-08 1.009389e-09
2.660725e+00 4.220039e-01 5.015526e-01 8.410063e-09 5.219600e-10
3.758374e+00 5.960964e-01 7.084619e-01 3.648385e-09 2.669284e-10
5.308844e+00 8.420085e-01 1.000729e+00 1.629736e-09 1.399080e-10
7.498942e+00 1.189369e+00 1.413567e+00 6.048916e-10 6.800276e-11
1.059254e+01 1.680028e+00 1.996717e+00 2.677769e-10 3.647714e-11
1.496236e+01 2.373102e+00 2.820438e+00 6.665515e-11 1.509282e-11
