Src2232, ts=10891.5750, z=0.0792, lum=44.5336, ind=1.4850 E(TeV) E_high(TeV) E_low(TeV) Flux(TeV{-1}.m{-2}.s{-1}) Flux error(TeV{-1}.m{-2}.s{-1})
1.188502e-01 1.885022e-02 2.240353e-02 5.680335e-06 5.730310e-07
1.678804e-01 2.662665e-02 3.164583e-02 3.233022e-06 2.476284e-07
2.371374e-01 3.761114e-02 4.470092e-02 1.832920e-06 1.237521e-07
3.349654e-01 5.312715e-02 6.314173e-02 9.218168e-07 6.354538e-08
4.731513e-01 7.504409e-02 8.919007e-02 4.927012e-07 3.373987e-08
6.683439e-01 1.060026e-01 1.259843e-01 2.751816e-07 1.829830e-08
9.440609e-01 1.497326e-01 1.779576e-01 1.298330e-07 8.897959e-09
1.333521e+00 2.115030e-01 2.513718e-01 5.534295e-08 4.118840e-09
1.883649e+00 2.987559e-01 3.550720e-01 2.613622e-08 2.035112e-09
2.660725e+00 4.220039e-01 5.015526e-01 1.395861e-08 1.157354e-09
3.758374e+00 5.960964e-01 7.084619e-01 6.371243e-09 6.190380e-10
5.308844e+00 8.420085e-01 1.000729e+00 2.605021e-09 3.180518e-10
7.498942e+00 1.189369e+00 1.413567e+00 8.564886e-10 1.483415e-10
1.059254e+01 1.680028e+00 1.996717e+00 3.452719e-10 7.685811e-11
1.496236e+01 2.373102e+00 2.820438e+00 6.631982e-11 2.772769e-11
