Src846, ts=1130.565, z=0.0756, lum=44.1644, ind=1.7996 E(TeV) E_high(TeV) E_low(TeV) Flux(TeV{-1}.m{-2}.s{-1}) Flux error(TeV{-1}.m{-2}.s{-1})
1.188502e-01 1.885022e-02 2.240353e-02 1.236288e-06 3.179244e-07
1.678804e-01 2.662665e-02 3.164583e-02 7.581291e-07 1.196850e-07
2.371374e-01 3.761114e-02 4.470092e-02 4.148920e-07 5.103674e-08
3.349654e-01 5.312715e-02 6.314173e-02 2.059291e-07 2.305202e-08
4.731513e-01 7.504409e-02 8.919007e-02 7.223258e-08 9.853280e-09
6.683439e-01 1.060026e-01 1.259843e-01 3.087541e-08 4.366991e-09
9.440609e-01 1.497326e-01 1.779576e-01 1.495917e-08 2.094655e-09
1.333521e+00 2.115030e-01 2.513718e-01 6.748935e-09 9.846307e-10
1.883649e+00 2.987559e-01 3.550720e-01 2.624130e-09 4.278722e-10
2.660725e+00 4.220039e-01 5.015526e-01 1.150750e-09 2.172987e-10
3.758374e+00 5.960964e-01 7.084619e-01 4.876715e-10 1.082987e-10
5.308844e+00 8.420085e-01 1.000729e+00 2.535054e-10 5.917611e-11
7.498942e+00 1.189369e+00 1.413567e+00 7.543159e-11 2.704270e-11
